# Atomic data extracted from SYNSPEC
# Format: ELEMENT ION_STAGE NLEVELS IONIZATION_POTENTIAL ATOMIC_NUMBER [*=estimated S]
# Followed by: N G EN S (one line per level)
#

H 1 100 13.58780 1.0 *
1 2.0 0.00000 0.0000000
2 8.0 10.19085 0.0000000
3 18.0 12.07804 0.0000000
4 32.0 12.73856 0.0000000
5 50.0 13.04429 0.0000000
6 72.0 13.21036 0.0000000
7 98.0 13.31050 0.0000000
8 128.0 13.37549 0.0000000
9 162.0 13.42005 0.0000000
10 200.0 13.45192 0.0000000
11 242.0 13.47550 0.0000000
12 288.0 13.49344 0.0000000
13 338.0 13.50740 0.0000000
14 392.0 13.51847 0.0000000
15 450.0 13.52741 0.0000000
16 512.0 13.53472 0.0000000
17 578.0 13.54078 0.0000000
18 648.0 13.54586 0.0000000
19 722.0 13.55016 0.0000000
20 800.0 13.55383 0.0000000
21 882.0 13.55699 0.0000000
22 968.0 13.55973 0.0000000
23 1058.0 13.56211 0.0000000
24 1152.0 13.56421 0.0000000
25 1250.0 13.56606 0.0000000
26 1352.0 13.56770 0.0000000
27 1458.0 13.56916 0.0000000
28 1568.0 13.57047 0.0000000
29 1682.0 13.57164 0.0000000
30 1800.0 13.57270 0.0000000
31 1922.0 13.57366 0.0000000
32 2048.0 13.57453 0.0000000
33 2178.0 13.57532 0.0000000
34 2312.0 13.57605 0.0000000
35 2450.0 13.57671 0.0000000
36 2592.0 13.57732 0.0000000
37 2738.0 13.57787 0.0000000
38 2888.0 13.57839 0.0000000
39 3042.0 13.57887 0.0000000
40 3200.0 13.57931 0.0000000
41 3362.0 13.57972 0.0000000
42 3528.0 13.58010 0.0000000
43 3698.0 13.58045 0.0000000
44 3872.0 13.58078 0.0000000
45 4050.0 13.58109 0.0000000
46 4232.0 13.58138 0.0000000
47 4418.0 13.58165 0.0000000
48 4608.0 13.58190 0.0000000
49 4802.0 13.58214 0.0000000
50 5000.0 13.58236 0.0000000
51 5202.0 13.58258 0.0000000
52 5408.0 13.58277 0.0000000
53 5618.0 13.58296 0.0000000
54 5832.0 13.58314 0.0000000
55 6050.0 13.58331 0.0000000
56 6272.0 13.58347 0.0000000
57 6498.0 13.58362 0.0000000
58 6728.0 13.58376 0.0000000
59 6962.0 13.58390 0.0000000
60 7200.0 13.58403 0.0000000
61 7442.0 13.58415 0.0000000
62 7688.0 13.58427 0.0000000
63 7938.0 13.58438 0.0000000
64 8192.0 13.58448 0.0000000
65 8450.0 13.58458 0.0000000
66 8712.0 13.58468 0.0000000
67 8978.0 13.58477 0.0000000
68 9248.0 13.58486 0.0000000
69 9522.0 13.58495 0.0000000
70 9800.0 13.58503 0.0000000
71 10082.0 13.58510 0.0000000
72 10368.0 13.58518 0.0000000
73 10658.0 13.58525 0.0000000
74 10952.0 13.58532 0.0000000
75 11250.0 13.58538 0.0000000
76 11552.0 13.58545 0.0000000
77 11858.0 13.58551 0.0000000
78 12168.0 13.58557 0.0000000
79 12482.0 13.58562 0.0000000
80 12800.0 13.58568 0.0000000
81 13122.0 13.58573 0.0000000
82 13448.0 13.58578 0.0000000
83 13778.0 13.58583 0.0000000
84 14112.0 13.58587 0.0000000
85 14450.0 13.58592 0.0000000
86 14792.0 13.58596 0.0000000
87 15138.0 13.58600 0.0000000
88 15488.0 13.58605 0.0000000
89 15842.0 13.58608 0.0000000
90 16200.0 13.58612 0.0000000
91 16562.0 13.58616 0.0000000
92 16928.0 13.58619 0.0000000
93 17298.0 13.58623 0.0000000
94 17672.0 13.58626 0.0000000
95 18050.0 13.58629 0.0000000
96 18432.0 13.58633 0.0000000
97 18818.0 13.58636 0.0000000
98 19208.0 13.58639 0.0000000
99 19602.0 13.58641 0.0000000
100 20000.0 13.58644 0.0000000

HE 1 100 24.58700 2.0
1 1.0 0.00000 0.3750000
2 3.0 19.81900 0.6220000
2 1.0 20.61500 0.6220000
2 5.0 20.96400 0.8420000
2 3.0 20.96400 0.8420000
2 1.0 20.96400 0.8420000
2 3.0 21.21800 0.8420000
3 3.0 22.71800 0.7470000
3 1.0 22.92000 0.7470000
3 5.0 23.00700 0.9120000
3 3.0 23.00700 0.9120000
3 1.0 23.00700 0.9120000
3 15.0 23.07300 0.9930000
3 5.0 23.07400 0.9930000
3 3.0 23.08700 0.9120000
4 3.0 23.59300 0.8100000
4 1.0 23.67300 0.8100000
4 9.0 23.70700 0.9370000
4 15.0 23.73600 0.9950000
4 5.0 23.73600 0.9950000
4 21.0 23.73700 1.0000000
4 7.0 23.73700 1.0000000
4 3.0 23.74200 0.9370000
5 100.0 24.02800 0.9490000
6 144.0 24.20100 0.9580000
7 196.0 24.30400 75.0000000
8 256.0 24.37100 75.0000000
9 324.0 24.41700 75.0000000
10 400.0 24.44900 75.0000000
11 484.0 24.47300 75.0000000
12 576.0 24.49100 75.0000000
13 676.0 24.50600 75.0000000
14 784.0 24.51700 75.0000000
15 900.0 24.52600 75.0000000
16 1024.0 24.53400 75.0000000
17 1156.0 24.54000 75.0000000
18 1296.0 24.54500 75.0000000
19 1444.0 24.54900 75.0000000
20 1600.0 24.55300 75.0000000
21 1764.0 24.55600 75.0000000
22 1936.0 24.55900 75.0000000
23 2116.0 24.56200 75.0000000
24 2304.0 24.56400 75.0000000
25 2500.0 24.56600 75.0000000
26 2704.0 24.56800 75.0000000
27 3136.0 24.57000 75.0000000
28 3136.0 24.57132 75.0000000
29 3364.0 24.57238 75.0000000
30 3600.0 24.57334 75.0000000
31 3844.0 24.57421 75.0000000
32 4096.0 24.57499 75.0000000
33 4356.0 24.57571 75.0000000
34 4624.0 24.57637 75.0000000
35 4900.0 24.57696 75.0000000
36 5184.0 24.57751 75.0000000
37 5476.0 24.57802 75.0000000
38 5776.0 24.57849 75.0000000
39 6084.0 24.57892 75.0000000
40 6400.0 24.57932 75.0000000
41 6724.0 24.57969 75.0000000
42 7056.0 24.58003 75.0000000
43 7396.0 24.58035 75.0000000
44 7744.0 24.58065 75.0000000
45 8100.0 24.58093 75.0000000
46 8464.0 24.58119 75.0000000
47 8836.0 24.58143 75.0000000
48 9216.0 24.58166 75.0000000
49 9604.0 24.58188 75.0000000
50 10000.0 24.58208 75.0000000
51 10404.0 24.58227 75.0000000
52 10816.0 24.58245 75.0000000
53 11236.0 24.58262 75.0000000
54 11664.0 24.58278 75.0000000
55 12100.0 24.58294 75.0000000
56 12544.0 24.58308 75.0000000
57 12996.0 24.58322 75.0000000
58 13456.0 24.58335 75.0000000
59 13924.0 24.58347 75.0000000
60 14400.0 24.58359 75.0000000
61 14884.0 24.58370 75.0000000
62 15376.0 24.58380 75.0000000
63 15876.0 24.58390 75.0000000
64 16384.0 24.58400 75.0000000
65 16900.0 24.58409 75.0000000
66 17424.0 24.58418 75.0000000
67 17956.0 24.58426 75.0000000
68 18496.0 24.58434 75.0000000
69 19044.0 24.58442 75.0000000
70 19600.0 24.58449 75.0000000
71 20164.0 24.58456 75.0000000
72 20736.0 24.58463 75.0000000
73 21316.0 24.58469 75.0000000
74 21904.0 24.58476 75.0000000
75 22500.0 24.58481 75.0000000
76 23104.0 24.58487 75.0000000
77 23716.0 24.58493 75.0000000
78 24336.0 24.58498 75.0000000
79 24964.0 24.58503 75.0000000
80 25600.0 24.58508 75.0000000
81 26244.0 24.58513 75.0000000

C 1 135 11.26400 6.0
2 1.0 0.00000 4.1797040
2 3.0 0.00203 4.1798680
2 5.0 0.00539 4.1801400
2 5.0 1.26387 4.2848640
2 1.0 2.68409 4.4113170
2 5.0 4.18267 4.5567120
3 1.0 7.48051 4.4175380
3 3.0 7.48289 4.4180360
3 5.0 7.48792 4.4190870
3 3.0 7.68489 4.4608730
2 7.0 7.94605 5.0120590
2 5.0 7.94662 5.0121450
2 3.0 7.94647 5.0121230
3 3.0 8.53739 4.6566210
3 3.0 8.64052 4.6822710
3 5.0 8.64315 4.6829310
3 7.0 8.64729 4.6839730
3 3.0 8.77126 4.7155250
3 1.0 8.84671 4.7351140
3 3.0 8.84825 4.7355170
3 5.0 8.85079 4.7361810
3 5.0 9.00271 4.7766100
3 1.0 9.17197 4.8232870
2 9.0 9.33068 5.2458680
3 5.0 9.63125 4.9604460
4 1.0 9.68391 4.6364630
4 3.0 9.68538 4.6370960
4 5.0 9.68926 4.6387720
3 5.0 9.69558 4.9811310
3 7.0 9.69762 4.9817950
3 9.0 9.70189 4.9831810
3 3.0 9.70816 4.9852240
3 5.0 9.70893 4.9854760
3 7.0 9.71004 4.9858390
4 3.0 9.71277 4.6489730
3 3.0 9.71438 4.9872570
3 3.0 9.76111 5.0026440
3 5.0 9.83342 5.0269320
3 3.0 9.83441 5.0272680
3 1.0 9.83493 5.0274480
4 3.0 9.94032 4.7519910
4 5.0 9.94270 4.7531140
4 7.0 9.94645 4.7548860
4 3.0 9.98871 4.7750150
4 3.0 10.05592 4.8077350
4 1.0 10.08144 4.8203940
4 3.0 10.08328 4.8213100
4 5.0 10.08553 4.8224330
4 5.0 10.13833 4.8491180
4 1.0 10.19809 4.8800810
4 5.0 10.35278 4.9645310
4 5.0 10.38514 4.9830840
4 7.0 10.38514 4.9830840
4 9.0 10.38514 4.9830840
4 3.0 10.39370 4.9880460
4 5.0 10.39456 4.9885500
4 7.0 10.39580 4.9892720
5 3.0 10.40021 4.7397960
4 7.0 10.40845 4.9966600
4 3.0 10.41874 5.0027120
4 5.0 10.42750 5.0078900
4 3.0 10.42990 5.0093170
4 1.0 10.42990 5.0093170
5 3.0 10.52043 4.8307760
5 3.0 10.52041 4.8307630
5 5.0 10.52041 4.8307630
5 7.0 10.53705 4.8439190
5 5.0 10.58840 4.8855000
5 1.0 10.61635 4.9088010
5 5.0 10.67973 4.9635640
5 5.0 10.70230 4.9837770
5 7.0 10.70328 4.9846630
5 9.0 10.70328 4.9846630
5 3.0 10.70878 4.9896590
5 5.0 10.70878 4.9896590
5 7.0 10.71184 4.9924490
6 3.0 10.71407 4.7933790
5 7.0 10.71854 4.9985770
5 3.0 10.72362 5.0032530
5 5.0 10.72523 5.0047410
5 3.0 10.72684 5.0062310
5 1.0 10.72684 5.0062310
6 5.0 10.86509 4.9723260
6 5.0 10.87426 4.9842140
6 7.0 10.87513 4.9853450
6 9.0 10.87513 4.9853450
6 3.0 10.87997 4.9916730
6 5.0 10.87997 4.9916730
6 7.0 10.88257 4.9950980
7 3.0 10.88533 4.8318700
6 7.0 10.88679 5.0006660
6 5.0 10.88964 5.0044510
6 3.0 10.89075 5.0059350
6 1.0 10.89075 5.0059350
6 3.0 10.88980 5.0046650
7 5.0 10.97789 4.9846160
7 7.0 10.97854 4.9857630
7 9.0 10.97854 4.9857630
7 3.0 10.98597 4.9990640
7 5.0 10.98597 4.9990640
7 7.0 10.98597 4.9990640
7 7.0 10.98808 5.0028650
7 3.0 10.98913 5.0047580
7 5.0 10.98994 5.0062330
7 3.0 10.98994 5.0062330
7 1.0 10.98994 5.0062330
8 9.0 11.04474 4.9841450
8 7.0 11.04474 4.9841450
8 5.0 11.04487 4.9844320
8 3.0 11.05280 5.0029900
8 5.0 11.05280 5.0029900
8 7.0 11.05280 5.0029900
8 7.0 11.05392 5.0056280
8 5.0 11.05429 5.0065080
8 3.0 11.05429 5.0065080
8 1.0 11.05429 5.0065080
9 9.0 11.09049 4.9833650
9 7.0 11.09049 4.9833650
9 5.0 11.09049 4.9833650
9 3.0 11.09843 5.0068860
9 5.0 11.09843 5.0068860
9 7.0 11.09843 5.0068860
9 7.0 11.09880 5.0080020
10 3.0 11.13129 5.0120740
10 5.0 11.13129 5.0120740
10 7.0 11.13129 5.0120740
11 3.0 11.15477 5.0140990
11 5.0 11.15477 5.0140990
11 7.0 11.15477 5.0140990
2 5.0 12.13544 6.0000000
3 3.0 12.83767 6.0000000
3 5.0 12.84024 6.0000000
3 7.0 12.84331 6.0000000
2 3.0 13.11772 6.0000000
2 3.0 14.86312 6.0000000

C 2 157 24.37600 6.0
2 2.0 0.00000 3.3222080
2 4.0 0.00794 3.3226440
2 2.0 5.33140 3.6330900
2 4.0 5.33408 3.6332570
2 6.0 5.33766 3.6334800
2 6.0 9.29034 3.8934200
2 4.0 9.29062 3.8934400
2 2.0 11.96386 4.0891840
2 2.0 13.71590 4.2291720
2 4.0 13.72101 4.2295970
3 2.0 14.44900 3.4367200
3 2.0 16.33194 3.6925910
3 4.0 16.33332 3.6927890
2 4.0 17.60895 4.5891030
3 4.0 18.04607 3.9531490
3 6.0 18.04625 3.9531780
2 6.0 18.65519 4.7027480
2 4.0 18.65582 4.7028200
4 2.0 19.49478 3.6034310
4 2.0 20.14995 3.7700600
4 4.0 20.15068 3.7702540
3 2.0 20.70119 4.4404310
3 4.0 20.70413 4.4410560
3 6.0 20.70971 4.4422400
4 4.0 20.84491 3.9616450
4 6.0 20.84496 3.9616590
2 2.0 20.92025 4.9917540
2 4.0 20.92256 4.9920910
4 6.0 20.95094 3.9924790
4 8.0 20.95094 3.9924790
5 2.0 21.49265 3.6975790
5 2.0 21.73314 3.7956900
5 4.0 21.73405 3.7960680
3 2.0 22.09347 4.7708760
3 4.0 22.13075 4.7809560
5 4.0 22.13075 3.9682600
5 6.0 22.13075 3.9682600
5 6.0 22.18799 3.9943250
5 8.0 22.18799 3.9943250
6 2.0 22.47211 3.7548870
3 2.0 22.52747 4.8938840
3 4.0 22.52929 4.8944300
3 6.0 22.53239 4.8953580
3 8.0 22.53689 4.8967060
3 2.0 22.56844 4.9062130
3 4.0 22.57086 4.9069440
6 4.0 22.82136 3.9712360
6 6.0 22.82136 3.9712360
6 6.0 22.85996 3.9965780
6 8.0 22.85996 3.9965780
3 4.0 22.89870 5.0111710
3 2.0 23.11398 5.0860560
3 4.0 23.11600 5.0867870
3 6.0 23.11878 5.0877960
3 4.0 23.38108 5.1885150
3 6.0 23.38522 5.1902050
3 2.0 24.12408 5.5916610
3 4.0 24.27024 5.7354270
3 6.0 24.27201 5.7376560
3 8.0 24.27444 5.7407390
3 10.0 24.27787 5.7451440
3 2.0 24.37010 5.9375130
3 4.0 24.37079 5.9413050
3 6.0 24.37187 5.9477320
3 8.0 24.37315 5.9565710
3 4.0 24.60198 6.0000000
3 6.0 24.60332 6.0000000
3 6.0 24.65351 6.0000000
3 4.0 24.65617 6.0000000
3 2.0 24.65793 6.0000000
3 6.0 24.78982 6.0000000
3 8.0 24.79512 6.0000000
3 4.0 25.06741 6.0000000
3 2.0 25.07039 6.0000000
4 2.0 25.98117 6.0000000
4 4.0 25.98415 6.0000000
4 6.0 25.98986 6.0000000
4 2.0 26.58329 6.0000000
4 4.0 26.58615 6.0000000
4 2.0 26.62689 6.0000000
4 4.0 26.62867 6.0000000
4 6.0 26.63139 6.0000000
4 8.0 26.63554 6.0000000
4 4.0 26.75178 6.0000000
4 2.0 26.82771 6.0000000
4 4.0 26.82771 6.0000000
4 6.0 26.83016 6.0000000
4 4.0 26.89454 6.0000000
4 6.0 26.89578 6.0000000
4 4.0 27.22147 6.0000000
4 6.0 27.22329 6.0000000
4 8.0 27.22585 6.0000000
4 10.0 27.22930 6.0000000
4 2.0 27.29263 6.0000000
4 4.0 27.29263 6.0000000
4 6.0 27.29378 6.0000000
4 8.0 27.29509 6.0000000
4 4.0 27.35131 6.0000000
4 6.0 27.35294 6.0000000
4 6.0 27.37703 6.0000000
4 4.0 27.37957 6.0000000
4 2.0 27.38104 6.0000000
4 6.0 27.41188 6.0000000
4 8.0 27.41302 6.0000000
4 4.0 27.41395 6.0000000
4 6.0 27.41395 6.0000000
4 8.0 27.41395 6.0000000
4 10.0 27.41409 6.0000000
4 6.0 27.46301 6.0000000
4 8.0 27.46301 6.0000000
4 6.0 27.46810 6.0000000
4 8.0 27.46936 6.0000000
4 10.0 27.47200 6.0000000
4 12.0 27.47561 6.0000000
4 8.0 27.47330 6.0000000
4 10.0 27.47864 6.0000000
4 8.0 27.48713 6.0000000
4 6.0 27.49096 6.0000000
4 4.0 27.49330 6.0000000
4 2.0 27.49330 6.0000000
4 6.0 27.48854 6.0000000
4 4.0 27.49412 6.0000000
4 4.0 27.55688 6.0000000
4 2.0 27.56022 6.0000000
5 2.0 27.99752 6.0000000
5 4.0 27.99752 6.0000000
5 6.0 27.99752 6.0000000
5 2.0 28.25640 6.0000000
5 4.0 28.25640 6.0000000
5 2.0 28.61124 6.0000000
5 4.0 28.61124 6.0000000
5 6.0 28.61124 6.0000000
5 8.0 28.61124 6.0000000
5 6.0 28.64683 6.0000000
5 4.0 28.64683 6.0000000
5 2.0 28.64683 6.0000000
5 6.0 28.66803 6.0000000
5 8.0 26.43629 6.0000000
5 4.0 28.66875 6.0000000
5 6.0 28.66875 6.0000000
5 8.0 28.66875 6.0000000
5 10.0 28.66875 6.0000000
5 6.0 28.70253 6.0000000
5 8.0 28.70253 6.0000000
5 10.0 28.70253 6.0000000
5 12.0 28.70253 6.0000000
5 8.0 28.70515 6.0000000
5 6.0 28.70515 6.0000000
5 4.0 28.70515 6.0000000
5 2.0 28.70515 6.0000000
6 2.0 29.31561 6.0000000
6 4.0 29.31561 6.0000000
6 6.0 29.31561 6.0000000
6 8.0 29.31561 6.0000000
6 6.0 29.33557 6.0000000
6 4.0 29.33557 6.0000000
6 2.0 29.33557 6.0000000

C 3 156 47.86400 6.0
2 1.0 0.00000 2.2476780
2 1.0 6.48630 2.5111780
2 3.0 6.48915 2.5112980
2 5.0 6.49619 2.5115950
2 3.0 12.69008 2.7833340
2 1.0 17.03237 2.9884240
2 3.0 17.03602 2.9886010
2 5.0 17.04185 2.9888870
2 5.0 18.08638 3.0403480
2 1.0 22.62984 3.2754800
3 3.0 29.52845 2.5163550
3 1.0 30.64541 2.6241300
3 3.0 32.10371 2.7702500
3 1.0 32.19328 2.7794400
3 3.0 32.19396 2.7795100
3 5.0 32.19555 2.7796730
3 3.0 33.47080 2.9135050
3 5.0 33.45866 2.9122040
3 7.0 33.47146 2.9135760
3 5.0 34.27982 3.0015030
3 1.0 38.20770 3.4719120
3 3.0 38.21183 3.4724520
3 5.0 38.22034 3.4735660
4 3.0 38.36164 2.6561920
3 3.0 38.43612 3.5019910
4 1.0 38.64882 2.7071070
4 1.0 39.39549 2.8433310
4 3.0 39.39549 2.8433310
4 5.0 39.39611 2.8434470
3 3.0 39.64054 3.6670030
4 3.0 39.84380 2.9280220
4 5.0 39.84582 2.9284080
4 7.0 39.84874 2.9289670
4 5.0 39.91699 2.9420700
4 7.0 39.91782 2.9422300
4 9.0 39.91892 2.9424420
4 3.0 39.97328 2.9529190
4 7.0 40.01022 2.9600610
3 3.0 40.05026 3.7258650
3 5.0 40.05341 3.7263230
3 7.0 40.05822 3.7270230
4 5.0 40.19756 2.9965350
3 3.0 40.57121 3.8029810
3 1.0 40.86969 3.8484120
3 3.0 40.87231 3.8488140
3 5.0 40.87686 3.8495140
3 5.0 41.24874 3.9075250
3 5.0 41.30157 3.9158970
3 5.0 41.32848 3.9201740
3 7.0 41.33158 3.9206670
3 9.0 41.33611 3.9213890
3 3.0 41.85783 4.0061820
3 5.0 41.80309 3.9971170
3 7.0 41.86202 4.0068770
5 3.0 42.14028 2.7560460
3 5.0 42.16117 4.0571830
3 3.0 42.16444 4.0577390
3 1.0 42.16623 4.0580450
3 7.0 42.32471 4.0852420
5 3.0 42.55869 2.8768640
5 1.0 42.67342 2.9108180
5 3.0 42.67342 2.9108180
5 5.0 42.67342 2.9108180
3 1.0 42.78661 4.1668110
5 3.0 42.83001 2.9577730
5 5.0 42.83001 2.9577730
5 7.0 42.83001 2.9577730
5 7.0 42.96405 2.9985490
5 9.0 42.96405 2.9985490
5 11.0 42.96416 2.9985830
5 9.0 42.96405 2.9985490
5 5.0 42.98029 3.0035250
5 3.0 42.98736 3.0056960
5 5.0 43.03527 3.0204410
5 7.0 43.03550 3.0205100
5 9.0 43.03579 3.0206010
5 7.0 43.25349 3.0885440
6 3.0 43.98952 2.7972480
6 3.0 44.27370 2.9169390
6 3.0 44.39248 2.9683660
6 5.0 44.39248 2.9683660
6 7.0 44.39248 2.9683660
6 7.0 44.46592 3.0006030
6 9.0 44.46592 3.0006030
6 11.0 44.46600 3.0006400
6 9.0 44.47219 3.0033720
6 5.0 44.47673 3.0053780
6 5.0 44.48596 3.0094640
6 7.0 44.48596 3.0094640
6 9.0 44.48596 3.0094640
6 7.0 44.52591 3.0271990
7 3.0 45.07626 2.8305050
7 3.0 45.24178 2.9260400
7 3.0 45.32720 2.9765240
7 5.0 45.32720 2.9765240
7 7.0 45.32720 2.9765240
7 5.0 45.38200 3.0093600
8 3.0 45.86543 2.9329860
8 3.0 45.92891 2.9820880
8 5.0 45.92891 2.9820880
8 7.0 45.92891 2.9820880
9 3.0 46.33929 2.9862940
9 5.0 46.33929 2.9862940
9 7.0 46.33929 2.9862940
4 1.0 46.69749 4.8284270
4 3.0 46.69749 4.8284270
4 5.0 46.69749 4.8284270
4 3.0 47.25143 5.1510120
4 3.0 47.35238 5.2241140
4 5.0 47.35238 5.2241140
4 7.0 47.35722 5.2277880
4 1.0 47.64920 5.4972630
4 3.0 47.64920 5.4972630
4 5.0 47.65379 5.5026630
4 5.0 47.81342 5.7560440
4 5.0 47.83558 5.8171220
4 3.0 48.06245 6.0000000
4 5.0 48.06245 6.0000000
4 7.0 48.06245 6.0000000
4 5.0 48.16114 6.0000000
4 3.0 48.16114 6.0000000
4 1.0 48.16114 6.0000000
4 7.0 48.20208 6.0000000
5 3.0 50.51542 6.0000000
5 3.0 50.55803 6.0000000
5 5.0 50.55803 6.0000000
5 7.0 50.55803 6.0000000
5 1.0 50.69428 6.0000000
5 3.0 50.69428 6.0000000
5 5.0 50.69428 6.0000000
5 5.0 50.77264 6.0000000
5 5.0 50.79460 6.0000000
5 3.0 50.90022 6.0000000
5 5.0 50.90022 6.0000000
5 7.0 50.90022 6.0000000
5 5.0 50.93829 6.0000000
5 3.0 50.93829 6.0000000
5 1.0 50.93829 6.0000000
6 3.0 52.24497 6.0000000
6 5.0 52.24497 6.0000000
6 7.0 52.24497 6.0000000
6 1.0 52.31775 6.0000000
6 3.0 52.31775 6.0000000
6 5.0 52.31775 6.0000000
6 3.0 52.43107 6.0000000
6 5.0 52.43107 6.0000000
6 7.0 52.43107 6.0000000
6 5.0 52.45302 6.0000000
6 3.0 52.45302 6.0000000
6 1.0 52.45302 6.0000000
7 3.0 53.23251 6.0000000
7 5.0 53.23251 6.0000000
7 7.0 53.23251 6.0000000
7 1.0 53.27802 6.0000000
7 3.0 53.27802 6.0000000
7 5.0 53.27802 6.0000000

C 4 55 64.47600 6.0
2 2.0 0.00000 1.6449340
2 2.0 7.99510 1.9238840
2 4.0 8.00838 1.9243640
3 2.0 37.54872 1.7783410
3 2.0 39.68134 1.9489650
3 4.0 39.68525 1.9492840
3 4.0 40.28040 1.9982020
3 6.0 40.28173 1.9983120
4 2.0 49.76113 1.8389410
4 2.0 50.62434 1.9628350
4 4.0 50.62599 1.9630750
4 4.0 50.87540 1.9995890
4 6.0 50.87595 1.9996690
4 6.0 50.88784 2.0014180
4 8.0 50.88784 2.0014180
5 2.0 55.21889 1.8745320
5 2.0 55.65134 1.9720460
5 4.0 55.65221 1.9722430
5 4.0 55.77947 2.0013940
5 6.0 55.77947 2.0013940
5 6.0 55.78577 2.0028420
5 8.0 55.78578 2.0028450
5 8.0 55.78703 2.0031330
5 10.0 55.78703 2.0031330
6 2.0 58.12002 1.8978820
6 2.0 58.36774 1.9786160
6 4.0 58.36774 1.9786160
6 4.0 58.44275 2.0033840
6 6.0 58.44275 2.0033840
6 6.0 58.44709 2.0048210
6 8.0 58.44709 2.0048210
6 8.0 58.44764 2.0050020
6 10.0 58.44764 2.0050020
6 10.0 58.44770 2.0050230
6 12.0 58.44770 2.0050230
7 2.0 59.84267 1.9138880
7 2.0 60.00038 1.9840330
7 4.0 60.00038 1.9840330
7 4.0 60.04725 2.0051130
7 6.0 60.04725 2.0051130
7 6.0 60.05156 2.0070610
7 8.0 60.05156 2.0070610
7 8.0 60.05191 2.0072170
7 10.0 60.05191 2.0072170
7 10.0 60.05194 2.0072340
7 12.0 60.05194 2.0072340
8 2.0 61.05946 1.9899610
8 4.0 61.05946 1.9899610
8 6.0 61.09294 2.0096540
8 8.0 61.09294 2.0096540
8 8.0 61.09319 2.0098000
8 10.0 61.09319 2.0098000
8 12.0 61.09319 2.0098000
8 14.0 61.09319 2.0098000
8 16.0 61.09319 2.0098000

C 5 15 340.14250 6.0 *
1 1.0 0.00000 1.0000000
2 3.0 298.96180 1.5000000
2 1.0 304.40460 1.5000000
2 3.0 304.40300 1.5000000
2 5.0 304.41990 1.5000000
2 3.0 307.88550 1.5000000
3 3.0 354.26450 1.5000000
3 5.0 354.26450 1.0000000
3 7.0 354.26450 1.0000000
3 3.0 354.51770 1.0000000
4 3.0 370.92470 1.5000000
5 3.0 378.53490 1.5000000
6 3.0 382.67100 1.5000000
7 3.0 385.19170 1.5000000
8 3.0 386.68070 1.5000000

N 1 228 14.53000 7.0
2 4.0 0.00000 4.9318700
2 6.0 2.38337 5.1089530
2 4.0 2.38436 5.1090310
2 4.0 3.57574 5.2040870
2 2.0 3.57574 5.2040870
3 2.0 10.32619 5.3299690
3 4.0 10.33038 5.3308000
3 6.0 10.33617 5.3319480
3 2.0 10.67904 5.4014190
3 4.0 10.69042 5.4037770
2 6.0 10.92429 5.9686830
2 4.0 10.92973 5.9694590
2 2.0 10.93217 5.9698060
3 2.0 11.60284 5.6057170
3 2.0 11.75037 5.6411850
3 4.0 11.75317 5.6418680
3 6.0 11.75780 5.6429950
3 8.0 11.76412 5.6445380
3 2.0 11.83769 5.6626210
3 4.0 11.83997 5.6631860
3 6.0 11.84472 5.6643620
3 4.0 11.99580 5.7023350
3 4.0 12.00032 5.7034890
3 6.0 12.00975 5.7058970
3 2.0 12.12207 5.7349460
3 4.0 12.12649 5.7361040
3 6.0 12.35701 5.7979760
3 4.0 12.35614 5.7977370
4 2.0 12.84713 5.5886420
4 4.0 12.85333 5.5912280
4 6.0 12.86185 5.5947900
4 2.0 12.91211 5.6159950
4 4.0 12.92268 5.6204920
3 4.0 12.97078 5.9808730
3 2.0 12.97568 5.9824640
3 4.0 12.97693 5.9828720
3 6.0 12.97929 5.9836380
